X,Y,DEPTH (m),-1,Z
541742.452,710962.899,4.48,-1,-4.48
541742.427,710962.905,4.47,-1,-4.47
541742.401,710962.912,4.45,-1,-4.45
541742.376,710962.918,4.45,-1,-4.45
541742.35,710962.924,4.47,-1,-4.47
541742.325,710962.931,4.45,-1,-4.45
541742.299,710962.937,4.44,-1,-4.44
541742.274,710962.943,4.45,-1,-4.45
541742.248,710962.95,4.46,-1,-4.46
541742.223,710962.956,4.45,-1,-4.45
541742.198,710962.962,4.44,-1,-4.44
541742.172,710962.969,4.44,-1,-4.44
541742.147,710962.975,4.45,-1,-4.45
541742.121,710962.981,4.44,-1,-4.44
541742.096,710962.988,4.45,-1,-4.45
541742.07,710962.994,4.45,-1,-4.45
541742.045,710963.001,4.45,-1,-4.45
541742.019,710963.007,4.43,-1,-4.43
541741.994,710963.013,4.43,-1,-4.43
541741.968,710963.02,4.45,-1,-4.45
541741.943,710963.026,4.45,-1,-4.45
541741.918,710963.032,4.46,-1,-4.46
541741.892,710963.039,4.44,-1,-4.44
541741.867,710963.045,4.44,-1,-4.44
541741.841,710963.051,4.5,-1,-4.5
541741.816,710963.058,4.51,-1,-4.51
541741.79,710963.064,4.5,-1,-4.5
541741.765,710963.07,4.5,-1,-4.5
541741.739,710963.077,4.55,-1,-4.55
541741.714,710963.083,4.49,-1,-4.49
541741.689,710963.083,4.54,-1,-4.54
541741.665,710963.083,4.54,-1,-4.54
541741.64,710963.083,4.54,-1,-4.54
541741.616,710963.083,4.59,-1,-4.59
541741.591,710963.083,4.62,-1,-4.62
541741.567,710963.083,4.57,-1,-4.57
541741.542,710963.083,4.55,-1,-4.55
541741.517,710963.083,4.55,-1,-4.55
541741.493,710963.083,4.55,-1,-4.55
541741.468,710963.083,4.53,-1,-4.53
541741.444,710963.083,4.5,-1,-4.5
541741.419,710963.083,4.5,-1,-4.5
541741.395,710963.083,4.49,-1,-4.49
541741.37,710963.083,4.48,-1,-4.48
541741.346,710963.083,4.47,-1,-4.47
541741.321,710963.082,4.45,-1,-4.45
541741.296,710963.082,4.45,-1,-4.45
541741.272,710963.082,4.49,-1,-4.49
541741.247,710963.082,4.49,-1,-4.49
541741.223,710963.082,4.47,-1,-4.47
541741.198,710963.082,4.51,-1,-4.51
541741.174,710963.082,4.51,-1,-4.51
541741.149,710963.082,4.51,-1,-4.51
541741.124,710963.082,4.5,-1,-4.5
541741.1,710963.082,4.49,-1,-4.49
541741.075,710963.082,4.51,-1,-4.51
541741.051,710963.082,4.57,-1,-4.57
541741.026,710963.082,4.57,-1,-4.57
541741.002,710963.082,4.59,-1,-4.59
541740.977,710963.082,4.66,-1,-4.66
541740.959,710963.088,4.69,-1,-4.69
541740.94,710963.094,4.63,-1,-4.63
541740.922,710963.1,4.63,-1,-4.63
541740.903,710963.107,4.65,-1,-4.65
541740.885,710963.113,4.66,-1,-4.66
541740.866,710963.119,4.58,-1,-4.58
541740.848,710963.125,4.57,-1,-4.57
541740.83,710963.131,4.55,-1,-4.55
541740.811,710963.137,4.55,-1,-4.55
541740.793,710963.143,4.55,-1,-4.55
541740.774,710963.149,4.5,-1,-4.5
541740.756,710963.156,4.51,-1,-4.51
541740.737,710963.162,4.5,-1,-4.5
541740.719,710963.168,4.5,-1,-4.5
541740.701,710963.174,4.51,-1,-4.51
541740.682,710963.18,4.51,-1,-4.51
541740.664,710963.186,4.53,-1,-4.53
541740.645,710963.192,4.54,-1,-4.54
541740.627,710963.199,4.51,-1,-4.51
541740.608,710963.205,4.51,-1,-4.51
541740.59,710963.211,4.57,-1,-4.57
541740.571,710963.217,4.57,-1,-4.57
541740.553,710963.223,4.61,-1,-4.61
541740.535,710963.229,4.63,-1,-4.63
541740.516,710963.235,4.67,-1,-4.67
541740.498,710963.241,4.62,-1,-4.62
541740.479,710963.248,4.59,-1,-4.59
541740.461,710963.254,4.59,-1,-4.59
541740.442,710963.26,4.59,-1,-4.59
541740.424,710963.266,4.59,-1,-4.59
541740.412,710963.272,4.59,-1,-4.59
541740.4,710963.278,4.59,-1,-4.59
541740.388,710963.284,4.59,-1,-4.59
541740.376,710963.29,4.59,-1,-4.59
541740.364,710963.296,4.59,-1,-4.59
541740.353,710963.302,4.59,-1,-4.59
541740.341,710963.308,4.59,-1,-4.59
541740.329,710963.313,4.63,-1,-4.63
541740.317,710963.319,4.67,-1,-4.67
541740.305,710963.325,4.65,-1,-4.65
541740.293,710963.331,4.61,-1,-4.61
541740.281,710963.337,4.63,-1,-4.63
541740.269,710963.343,4.63,-1,-4.63
541740.257,710963.349,4.63,-1,-4.63
541740.245,710963.355,4.63,-1,-4.63
541740.234,710963.361,4.63,-1,-4.63
541740.222,710963.367,4.63,-1,-4.63
541740.21,710963.373,4.61,-1,-4.61
541740.198,710963.379,4.61,-1,-4.61
541740.186,710963.385,4.7,-1,-4.7
541740.174,710963.391,4.61,-1,-4.61
541740.162,710963.397,4.59,-1,-4.59
541740.15,710963.403,4.59,-1,-4.59
541740.138,710963.408,4.61,-1,-4.61
541740.126,710963.414,4.59,-1,-4.59
541740.115,710963.42,4.58,-1,-4.58
541740.103,710963.426,4.63,-1,-4.63
541740.091,710963.432,4.63,-1,-4.63
541740.079,710963.438,4.65,-1,-4.65
541740.067,710963.444,4.65,-1,-4.65
541740.055,710963.45,4.59,-1,-4.59
541740.049,710963.45,4.59,-1,-4.59
541740.043,710963.45,4.58,-1,-4.58
541740.037,710963.45,4.58,-1,-4.58
541740.03,710963.45,4.59,-1,-4.59
541740.024,710963.45,4.65,-1,-4.65
541740.018,710963.45,4.59,-1,-4.59
541740.012,710963.45,4.61,-1,-4.61
541740.006,710963.45,4.59,-1,-4.59
541740,710963.45,4.58,-1,-4.58
541739.994,710963.45,4.58,-1,-4.58
541739.988,710963.45,4.58,-1,-4.58
541739.981,710963.45,4.58,-1,-4.58
541739.975,710963.45,4.68,-1,-4.68
541739.969,710963.45,4.8,-1,-4.8
541739.963,710963.45,4.75,-1,-4.75
541739.957,710963.45,4.76,-1,-4.76
541739.951,710963.45,4.75,-1,-4.75
541739.945,710963.45,4.76,-1,-4.76
541739.938,710963.45,4.76,-1,-4.76
541739.932,710963.45,4.76,-1,-4.76
541739.926,710963.45,0.99,-1,-0.99
541739.92,710963.45,0.92,-1,-0.92
541739.914,710963.45,0.93,-1,-0.93
541739.908,710963.45,0.93,-1,-0.93
541739.902,710963.45,0.92,-1,-0.92
541739.896,710963.45,0.92,-1,-0.92
541739.889,710963.45,0.92,-1,-0.92
541739.883,710963.45,0.93,-1,-0.93
541739.877,710963.45,0.92,-1,-0.92
541739.871,710963.45,0.94,-1,-0.94
541739.853,710963.456,0.92,-1,-0.92
541739.834,710963.462,0.92,-1,-0.92
541739.816,710963.468,0.92,-1,-0.92
541739.797,710963.474,0.92,-1,-0.92
541739.779,710963.48,0.92,-1,-0.92
541739.76,710963.487,0.99,-1,-0.99
541739.742,710963.493,0.92,-1,-0.92
541739.724,710963.499,0.92,-1,-0.92
541739.705,710963.505,0.95,-1,-0.95
541739.687,710963.511,0.94,-1,-0.94
541739.668,710963.517,0.75,-1,-0.75
541739.65,710963.523,0.91,-1,-0.91
541739.631,710963.529,0.91,-1,-0.91
541739.613,710963.535,0.84,-1,-0.84
541739.595,710963.542,0.84,-1,-0.84
541739.576,710963.548,0.81,-1,-0.81
541739.558,710963.554,0.81,-1,-0.81
541739.539,710963.56,0.92,-1,-0.92
541739.521,710963.566,0.81,-1,-0.81
541739.502,710963.572,0.9,-1,-0.9
541739.484,710963.578,0.87,-1,-0.87
541739.465,710963.584,0.74,-1,-0.74
541739.447,710963.59,0.81,-1,-0.81
541739.429,710963.596,0.92,-1,-0.92
541739.41,710963.603,0.92,-1,-0.92
541739.392,710963.609,0.83,-1,-0.83
541739.373,710963.615,0.9,-1,-0.9
541739.355,710963.621,0.9,-1,-0.9
541739.336,710963.627,0.9,-1,-0.9
541739.318,710963.633,1.01,-1,-1.01
541739.257,710963.621,1.01,-1,-1.01
541739.195,710963.608,1.01,-1,-1.01
541739.134,710963.596,0.96,-1,-0.96
541739.072,710963.584,0.94,-1,-0.94
541739.011,710963.572,0.84,-1,-0.84
541738.949,710963.559,0.78,-1,-0.78
541738.888,710963.547,0.78,-1,-0.78
541738.827,710963.535,0.8,-1,-0.8
541738.765,710963.522,0.93,-1,-0.93
541738.704,710963.51,0.86,-1,-0.86
541738.642,710963.498,0.86,-1,-0.86
541738.581,710963.485,0.86,-1,-0.86
541738.519,710963.473,0.86,-1,-0.86
541738.458,710963.461,0.88,-1,-0.88
541738.397,710963.448,0.86,-1,-0.86
541738.335,710963.436,0.86,-1,-0.86
541738.274,710963.424,0.86,-1,-0.86
541738.212,710963.412,0.88,-1,-0.88
541738.151,710963.399,0.88,-1,-0.88
541738.089,710963.387,0.92,-1,-0.92
541738.028,710963.375,4.75,-1,-4.75
541737.966,710963.362,4.76,-1,-4.76
541737.905,710963.35,0.98,-1,-0.98
541737.844,710963.338,0.79,-1,-0.79
541737.782,710963.326,1.23,-1,-1.23
541737.721,710963.313,1.15,-1,-1.15
541737.659,710963.301,1.33,-1,-1.33
541737.598,710963.289,1.33,-1,-1.33
541737.536,710963.276,1.33,-1,-1.33
541737.475,710963.264,1.33,-1,-1.33
541737.383,710963.221,1.34,-1,-1.34
541737.291,710963.178,1.34,-1,-1.34
541737.199,710963.135,1.32,-1,-1.32
541737.106,710963.092,1.24,-1,-1.24
541737.014,710963.049,1.18,-1,-1.18
541736.922,710963.006,1.19,-1,-1.19
541736.83,710962.963,1.19,-1,-1.19
541736.738,710962.919,1.32,-1,-1.32
541736.646,710962.876,1.34,-1,-1.34
541736.554,710962.833,0.85,-1,-0.85
541736.462,710962.79,4.75,-1,-4.75
541736.369,710962.747,4.79,-1,-4.79
541736.277,710962.704,4.72,-1,-4.72
541736.185,710962.661,4.71,-1,-4.71
541736.093,710962.618,4.71,-1,-4.71
541736.001,710962.575,4.72,-1,-4.72
541735.909,710962.532,4.76,-1,-4.76
541735.817,710962.489,4.66,-1,-4.66
541735.724,710962.446,4.67,-1,-4.67
541735.632,710962.403,4.63,-1,-4.63
541735.54,710962.36,4.63,-1,-4.63
541735.448,710962.317,4.62,-1,-4.62
541735.356,710962.273,4.66,-1,-4.66
541735.264,710962.23,4.61,-1,-4.61
541735.172,710962.187,4.59,-1,-4.59
541735.08,710962.144,4.59,-1,-4.59
541734.987,710962.101,4.62,-1,-4.62
541734.895,710962.058,4.63,-1,-4.63
541734.803,710962.015,4.63,-1,-4.63
541734.711,710961.972,4.59,-1,-4.59
541734.631,710961.917,4.61,-1,-4.61
541734.551,710961.861,4.66,-1,-4.66
541734.472,710961.806,4.67,-1,-4.67
541734.392,710961.751,4.71,-1,-4.71
541734.312,710961.695,4.66,-1,-4.66
541734.232,710961.64,4.65,-1,-4.65
541734.152,710961.585,4.68,-1,-4.68
541734.073,710961.529,4.69,-1,-4.69
541733.993,710961.474,4.69,-1,-4.69
541733.913,710961.419,4.65,-1,-4.65
541733.833,710961.363,4.65,-1,-4.65
541733.753,710961.308,4.63,-1,-4.63
541733.674,710961.253,4.65,-1,-4.65
541733.594,710961.197,4.63,-1,-4.63
541733.514,710961.142,4.65,-1,-4.65
541733.434,710961.087,4.63,-1,-4.63
541733.354,710961.031,4.65,-1,-4.65
541733.275,710960.976,4.66,-1,-4.66
541733.195,710960.921,4.66,-1,-4.66
541733.115,710960.865,4.67,-1,-4.67
541733.035,710960.81,4.66,-1,-4.66
541732.955,710960.755,4.66,-1,-4.66
541732.876,710960.699,4.63,-1,-4.63
541732.796,710960.644,4.68,-1,-4.68
541732.716,710960.589,4.67,-1,-4.67
541732.636,710960.533,4.66,-1,-4.66
541732.556,710960.478,4.65,-1,-4.65
541732.477,710960.423,4.69,-1,-4.69
541732.397,710960.367,4.69,-1,-4.69
541732.317,710960.312,4.67,-1,-4.67
541732.249,710960.269,4.65,-1,-4.65
541732.182,710960.226,4.69,-1,-4.69
541732.114,710960.183,4.66,-1,-4.66
541732.047,710960.14,4.63,-1,-4.63
541731.979,710960.097,4.62,-1,-4.62
541731.912,710960.054,4.61,-1,-4.61
541731.844,710960.011,4.63,-1,-4.63
541731.776,710959.968,4.59,-1,-4.59
541731.709,710959.925,4.69,-1,-4.69
541731.641,710959.882,4.67,-1,-4.67
541731.574,710959.839,4.63,-1,-4.63
541731.506,710959.796,4.65,-1,-4.65
541731.439,710959.753,4.65,-1,-4.65
541731.371,710959.71,4.66,-1,-4.66
541731.304,710959.667,4.67,-1,-4.67
541731.236,710959.623,4.65,-1,-4.65
541731.168,710959.58,4.66,-1,-4.66
541731.101,710959.537,4.65,-1,-4.65
541731.033,710959.494,4.69,-1,-4.69
541730.966,710959.451,4.67,-1,-4.67
541730.898,710959.408,4.69,-1,-4.69
541730.831,710959.365,4.68,-1,-4.68
541730.763,710959.322,4.67,-1,-4.67
541730.695,710959.279,4.68,-1,-4.68
541730.628,710959.236,4.7,-1,-4.7
541730.56,710959.193,4.66,-1,-4.66
541730.493,710959.15,4.71,-1,-4.71
541730.425,710959.107,4.63,-1,-4.63
541730.358,710959.064,4.66,-1,-4.66
541730.29,710959.021,4.62,-1,-4.62
541730.225,710958.973,4.62,-1,-4.62
541730.159,710958.926,4.73,-1,-4.73
541730.094,710958.878,4.67,-1,-4.67
541730.029,710958.831,4.67,-1,-4.67
541729.963,710958.783,4.66,-1,-4.66
541729.898,710958.736,4.66,-1,-4.66
541729.833,710958.688,4.67,-1,-4.67
541729.767,710958.64,4.68,-1,-4.68
541729.702,710958.593,4.63,-1,-4.63
541729.636,710958.545,4.69,-1,-4.69
541729.571,710958.498,4.63,-1,-4.63
541729.506,710958.45,4.7,-1,-4.7
541729.44,710958.402,4.59,-1,-4.59
541729.375,710958.355,4.63,-1,-4.63
541729.31,710958.307,4.69,-1,-4.69
541729.244,710958.26,4.67,-1,-4.67
541729.179,710958.212,4.63,-1,-4.63
541729.114,710958.165,4.59,-1,-4.59
541729.048,710958.117,4.66,-1,-4.66
541728.983,710958.069,4.58,-1,-4.58
541728.918,710958.022,4.61,-1,-4.61
541728.852,710957.974,4.68,-1,-4.68
541728.787,710957.927,4.59,-1,-4.59
541728.721,710957.879,4.68,-1,-4.68
541728.656,710957.831,4.65,-1,-4.65
541728.591,710957.784,4.68,-1,-4.68
541728.525,710957.736,4.66,-1,-4.66
541728.46,710957.689,4.66,-1,-4.66
541728.395,710957.641,4.62,-1,-4.62
541728.329,710957.594,4.62,-1,-4.62
541728.264,710957.546,4.68,-1,-4.68
541728.213,710957.508,4.67,-1,-4.67
541728.162,710957.47,4.67,-1,-4.67
541728.112,710957.431,4.67,-1,-4.67
541728.061,710957.393,4.68,-1,-4.68
541728.01,710957.355,4.67,-1,-4.67
541727.959,710957.317,4.67,-1,-4.67
541727.908,710957.279,4.63,-1,-4.63
541727.857,710957.241,4.63,-1,-4.63
541727.807,710957.202,4.65,-1,-4.65
541727.756,710957.164,4.63,-1,-4.63
541727.705,710957.126,4.63,-1,-4.63
541727.654,710957.088,4.62,-1,-4.62
541727.603,710957.05,4.57,-1,-4.57
541727.552,710957.012,4.58,-1,-4.58
541727.502,710956.973,4.57,-1,-4.57
541727.451,710956.935,4.55,-1,-4.55
541727.4,710956.897,4.55,-1,-4.55
541727.349,710956.859,4.54,-1,-4.54
541727.298,710956.821,4.55,-1,-4.55
541727.247,710956.783,4.51,-1,-4.51
541727.197,710956.744,4.54,-1,-4.54
541727.146,710956.706,4.51,-1,-4.51
541727.095,710956.668,4.51,-1,-4.51
541727.044,710956.63,4.54,-1,-4.54
541726.993,710956.592,4.55,-1,-4.55
541726.942,710956.554,4.51,-1,-4.51
541726.892,710956.515,4.54,-1,-4.54
541726.841,710956.477,4.55,-1,-4.55
541726.79,710956.439,4.58,-1,-4.58
541726.753,710956.408,4.58,-1,-4.58
541726.716,710956.378,4.62,-1,-4.62
541726.68,710956.347,4.63,-1,-4.63
541726.643,710956.316,4.63,-1,-4.63
541726.606,710956.285,4.63,-1,-4.63
541726.569,710956.255,4.63,-1,-4.63
541726.532,710956.224,4.63,-1,-4.63
541726.495,710956.193,4.63,-1,-4.63
541726.459,710956.162,4.65,-1,-4.65
541726.422,710956.132,4.59,-1,-4.59
541726.385,710956.101,4.59,-1,-4.59
541726.348,710956.07,4.63,-1,-4.63
541726.311,710956.039,4.59,-1,-4.59
541726.274,710956.009,4.61,-1,-4.61
541726.238,710955.978,4.61,-1,-4.61
541726.201,710955.947,4.59,-1,-4.59
541726.164,710955.917,4.61,-1,-4.61
541726.127,710955.886,4.61,-1,-4.61
541726.09,710955.855,4.61,-1,-4.61
541726.053,710955.824,4.73,-1,-4.73
541726.017,710955.794,4.62,-1,-4.62
541725.98,710955.763,4.63,-1,-4.63
541725.943,710955.732,4.58,-1,-4.58
541725.906,710955.701,4.63,-1,-4.63
541725.869,710955.671,4.59,-1,-4.59
541725.832,710955.64,4.63,-1,-4.63
541725.796,710955.609,4.66,-1,-4.66
541725.759,710955.578,4.62,-1,-4.62
541725.722,710955.548,4.65,-1,-4.65
541725.685,710955.517,4.83,-1,-4.83
541725.643,710955.499,4.74,-1,-4.74
541725.602,710955.481,4.69,-1,-4.69
541725.56,710955.463,4.73,-1,-4.73
541725.519,710955.446,4.76,-1,-4.76
541725.477,710955.428,4.7,-1,-4.7
541725.435,710955.41,4.72,-1,-4.72
541725.394,710955.392,4.71,-1,-4.71
541725.352,710955.374,4.68,-1,-4.68
541725.31,710955.356,4.68,-1,-4.68
541725.269,710955.339,4.69,-1,-4.69
541725.227,710955.321,4.78,-1,-4.78
541725.186,710955.303,4.68,-1,-4.68
541725.144,710955.285,4.66,-1,-4.66
541725.102,710955.267,4.68,-1,-4.68
541725.061,710955.249,4.72,-1,-4.72
541725.019,710955.232,4.67,-1,-4.67
541724.978,710955.214,4.82,-1,-4.82
541724.936,710955.196,4.61,-1,-4.61
541724.894,710955.178,4.63,-1,-4.63
541724.853,710955.16,4.59,-1,-4.59
541724.811,710955.142,4.59,-1,-4.59
541724.77,710955.125,4.63,-1,-4.63
541724.728,710955.107,4.63,-1,-4.63
541724.686,710955.089,4.59,-1,-4.59
541724.645,710955.071,4.61,-1,-4.61
541724.603,710955.053,4.67,-1,-4.67
541724.561,710955.035,4.63,-1,-4.63
541724.52,710955.018,4.66,-1,-4.66
541724.478,710955,4.66,-1,-4.66
541724.437,710954.982,4.65,-1,-4.65
541724.395,710954.964,4.66,-1,-4.66
541724.358,710954.946,4.63,-1,-4.63
541724.321,710954.927,4.66,-1,-4.66
541724.285,710954.909,4.76,-1,-4.76
541724.248,710954.89,4.72,-1,-4.72
541724.211,710954.872,4.62,-1,-4.62
541724.174,710954.853,4.63,-1,-4.63
541724.137,710954.835,4.63,-1,-4.63
541724.1,710954.816,4.79,-1,-4.79
541724.064,710954.798,4.67,-1,-4.67
541724.027,710954.779,4.61,-1,-4.61
541723.99,710954.761,4.59,-1,-4.59
541723.953,710954.742,4.63,-1,-4.63
541723.916,710954.724,4.62,-1,-4.62
541723.879,710954.705,4.63,-1,-4.63
541723.843,710954.687,4.62,-1,-4.62
541723.806,710954.669,4.61,-1,-4.61
541723.769,710954.65,4.62,-1,-4.62
541723.732,710954.632,4.59,-1,-4.59
541723.695,710954.613,4.59,-1,-4.59
541723.658,710954.595,4.59,-1,-4.59
541723.622,710954.576,4.61,-1,-4.61
541723.585,710954.558,4.63,-1,-4.63
541723.548,710954.539,4.71,-1,-4.71
541723.511,710954.521,4.7,-1,-4.7
541723.474,710954.502,4.66,-1,-4.66
541723.437,710954.484,4.66,-1,-4.66
541723.4,710954.465,4.66,-1,-4.66
541723.364,710954.447,4.59,-1,-4.59
541723.327,710954.428,4.65,-1,-4.65
541723.29,710954.41,4.61,-1,-4.61
541723.247,710954.385,4.62,-1,-4.62
541723.204,710954.361,4.65,-1,-4.65
541723.161,710954.336,4.59,-1,-4.59
541723.118,710954.312,4.61,-1,-4.61
541723.075,710954.287,4.61,-1,-4.61
541723.032,710954.262,4.61,-1,-4.61
541722.989,710954.238,4.62,-1,-4.62
541722.946,710954.213,4.59,-1,-4.59
541722.903,710954.189,4.59,-1,-4.59
541722.86,710954.164,4.61,-1,-4.61
541722.817,710954.139,4.58,-1,-4.58
541722.774,710954.115,4.58,-1,-4.58
541722.731,710954.09,4.59,-1,-4.59
541722.688,710954.066,4.57,-1,-4.57
541722.645,710954.041,4.58,-1,-4.58
541722.602,710954.016,4.62,-1,-4.62
541722.559,710953.992,4.63,-1,-4.63
541722.516,710953.967,4.66,-1,-4.66
541722.473,710953.943,4.58,-1,-4.58
541722.43,710953.918,4.59,-1,-4.59
541722.387,710953.893,4.58,-1,-4.58
541722.344,710953.869,4.58,-1,-4.58
541722.301,710953.844,4.58,-1,-4.58
541722.258,710953.82,4.55,-1,-4.55
541722.215,710953.795,4.55,-1,-4.55
541722.172,710953.77,4.62,-1,-4.62
541722.129,710953.746,4.58,-1,-4.58
541722.086,710953.721,4.57,-1,-4.57
541722.043,710953.697,4.61,-1,-4.61
541722,710953.672,4.59,-1,-4.59
541721.896,710953.592,4.59,-1,-4.59
541721.791,710953.512,4.62,-1,-4.62
541721.687,710953.432,4.66,-1,-4.66
541721.583,710953.352,4.59,-1,-4.59
541721.478,710953.272,4.65,-1,-4.65
541721.374,710953.193,4.61,-1,-4.61
541721.269,710953.113,4.61,-1,-4.61
541721.165,710953.033,4.62,-1,-4.62
541721.061,710952.953,4.53,-1,-4.53
541720.956,710952.873,4.51,-1,-4.51
541720.852,710952.793,4.53,-1,-4.53
541720.748,710952.713,4.51,-1,-4.51
541720.643,710952.633,4.48,-1,-4.48
541720.539,710952.553,4.47,-1,-4.47
541720.434,710952.474,4.46,-1,-4.46
541720.33,710952.394,4.47,-1,-4.47
541720.226,710952.314,4.48,-1,-4.48
541720.121,710952.234,4.48,-1,-4.48
541720.017,710952.154,4.46,-1,-4.46
541719.913,710952.074,4.48,-1,-4.48
541719.808,710951.994,4.5,-1,-4.5
541719.704,710951.914,4.46,-1,-4.46
541719.6,710951.834,4.49,-1,-4.49
541719.495,710951.754,4.5,-1,-4.5
541719.391,710951.674,4.55,-1,-4.55
541719.286,710951.595,4.49,-1,-4.49
541719.182,710951.515,4.5,-1,-4.5
541719.078,710951.435,4.51,-1,-4.51
541718.973,710951.355,4.46,-1,-4.46
541718.869,710951.275,4.59,-1,-4.59
541716.796,710950.03,4.4,-1,-4.4
541714.724,710948.785,4.38,-1,-4.38
541712.652,710947.54,4.36,-1,-4.36
541710.579,710946.295,4.44,-1,-4.44
541710.37,710946.184,4.4,-1,-4.4
541710.161,710946.074,4.42,-1,-4.42
541709.953,710945.963,4.38,-1,-4.38
541709.744,710945.852,4.43,-1,-4.43
541709.535,710945.742,4.42,-1,-4.42
541709.326,710945.631,4.44,-1,-4.44
541709.117,710945.52,4.38,-1,-4.38
541708.909,710945.409,4.4,-1,-4.4
541708.7,710945.299,4.3,-1,-4.3
541708.491,710945.188,4.38,-1,-4.38
541708.282,710945.077,4.43,-1,-4.43
541708.073,710944.967,4.38,-1,-4.38
541707.865,710944.856,4.38,-1,-4.38
541707.656,710944.745,4.37,-1,-4.37
541707.447,710944.635,4.34,-1,-4.34
541707.238,710944.524,4.36,-1,-4.36
541707.029,710944.413,4.38,-1,-4.38
541706.821,710944.302,4.46,-1,-4.46
541706.612,710944.192,4.42,-1,-4.42
541706.403,710944.081,4.45,-1,-4.45
541706.194,710943.97,4.46,-1,-4.46
541705.985,710943.86,4.46,-1,-4.46
541705.777,710943.749,4.5,-1,-4.5
541705.568,710943.638,4.54,-1,-4.54
541705.359,710943.528,4.51,-1,-4.51
541705.15,710943.417,4.53,-1,-4.53
541704.941,710943.306,4.51,-1,-4.51
541704.733,710943.195,4.49,-1,-4.49
541704.524,710943.085,4.54,-1,-4.54
541704.315,710942.974,4.58,-1,-4.58
541704.108,710942.859,4.61,-1,-4.61
541703.9,710942.743,4.55,-1,-4.55
541703.693,710942.628,4.59,-1,-4.59
541703.486,710942.513,4.57,-1,-4.57
541703.279,710942.398,4.61,-1,-4.61
541703.071,710942.282,4.59,-1,-4.59
541702.864,710942.167,4.59,-1,-4.59
541702.657,710942.052,4.66,-1,-4.66
541702.45,710941.936,4.68,-1,-4.68
541702.242,710941.821,4.7,-1,-4.7
541702.035,710941.706,4.76,-1,-4.76
541701.828,710941.591,4.8,-1,-4.8
541701.621,710941.475,4.75,-1,-4.75
541701.413,710941.36,4.73,-1,-4.73
